"s1c2d1_22.5mg - RawData"
"Wavelength nm.","Abs."
200.00,1.153
201.00,1.145
202.00,1.132
203.00,1.129
204.00,1.127
205.00,1.126
206.00,1.117
207.00,1.113
208.00,1.109
209.00,1.104
210.00,1.099
211.00,1.093
212.00,1.090
213.00,1.082
214.00,1.077
215.00,1.072
216.00,1.071
217.00,1.066
218.00,1.063
219.00,1.060
220.00,1.056
221.00,1.051
222.00,1.042
223.00,1.032
224.00,1.019
225.00,1.009
226.00,1.000
227.00,0.991
228.00,0.973
229.00,0.954
230.00,0.927
231.00,0.902
232.00,0.875
233.00,0.849
234.00,0.817
235.00,0.784
236.00,0.751
237.00,0.714
238.00,0.678
239.00,0.641
240.00,0.611
241.00,0.580
242.00,0.548
243.00,0.519
244.00,0.490
245.00,0.467
246.00,0.442
247.00,0.423
248.00,0.404
249.00,0.388
250.00,0.372
251.00,0.359
252.00,0.346
253.00,0.335
254.00,0.326
255.00,0.318
256.00,0.309
257.00,0.298
258.00,0.291
259.00,0.281
260.00,0.269
261.00,0.258
262.00,0.254
263.00,0.248
264.00,0.242
265.00,0.236
266.00,0.233
267.00,0.233
268.00,0.230
269.00,0.228
270.00,0.224
271.00,0.220
272.00,0.216
273.00,0.211
274.00,0.210
275.00,0.210
276.00,0.211
277.00,0.209
278.00,0.208
279.00,0.204
280.00,0.204
281.00,0.201
282.00,0.201
283.00,0.201
284.00,0.200
285.00,0.202
286.00,0.201
287.00,0.201
288.00,0.202
289.00,0.203
290.00,0.204
291.00,0.201
292.00,0.197
293.00,0.200
294.00,0.200
295.00,0.200
296.00,0.197
297.00,0.198
298.00,0.197
299.00,0.194
300.00,0.171
301.00,0.154
302.00,0.139
303.00,0.139
304.00,0.138
305.00,0.137
306.00,0.138
307.00,0.138
308.00,0.137
309.00,0.135
310.00,0.127
311.00,0.118
312.00,0.111
313.00,0.110
314.00,0.109
315.00,0.110
316.00,0.109
317.00,0.108
318.00,0.105
319.00,0.105
320.00,0.103
321.00,0.103
322.00,0.101
323.00,0.101
324.00,0.100
325.00,0.100
326.00,0.098
327.00,0.098
328.00,0.098
329.00,0.097
330.00,0.095
331.00,0.094
332.00,0.094
333.00,0.095
334.00,0.095
335.00,0.093
336.00,0.092
337.00,0.092
338.00,0.090
339.00,0.089
340.00,0.089
341.00,0.088
342.00,0.089
343.00,0.088
344.00,0.089
345.00,0.089
346.00,0.089
347.00,0.089
348.00,0.088
349.00,0.088
350.00,0.088
351.00,0.088
352.00,0.088
353.00,0.088
354.00,0.088
355.00,0.088
356.00,0.089
357.00,0.089
358.00,0.089
359.00,0.088
360.00,0.086
361.00,0.085
362.00,0.085
363.00,0.087
364.00,0.087
365.00,0.087
366.00,0.087
367.00,0.087
368.00,0.087
369.00,0.087
370.00,0.087
371.00,0.086
372.00,0.087
373.00,0.087
374.00,0.087
375.00,0.087
376.00,0.087
377.00,0.087
378.00,0.087
379.00,0.087
380.00,0.087
381.00,0.087
382.00,0.087
383.00,0.086
384.00,0.086
385.00,0.086
386.00,0.086
387.00,0.086
388.00,0.086
389.00,0.085
390.00,0.085
391.00,0.085
392.00,0.086
393.00,0.086
394.00,0.085
395.00,0.086
396.00,0.085
397.00,0.084
398.00,0.084
399.00,0.084
400.00,0.083
401.00,0.082
402.00,0.082
403.00,0.082
404.00,0.082
405.00,0.081
406.00,0.081
407.00,0.080
408.00,0.080
409.00,0.080
410.00,0.079
411.00,0.079
412.00,0.080
413.00,0.081
414.00,0.080
415.00,0.079
416.00,0.078
417.00,0.078
418.00,0.076
419.00,0.077
420.00,0.078
421.00,0.078
422.00,0.077
423.00,0.076
424.00,0.075
425.00,0.075
426.00,0.075
427.00,0.074
428.00,0.073
429.00,0.072
430.00,0.071
431.00,0.070
432.00,0.070
433.00,0.070
434.00,0.069
435.00,0.069
436.00,0.069
437.00,0.069
438.00,0.068
439.00,0.069
440.00,0.067
441.00,0.068
442.00,0.067
443.00,0.067
444.00,0.066
445.00,0.066
446.00,0.065
447.00,0.064
448.00,0.063
449.00,0.062
450.00,0.061
451.00,0.061
452.00,0.060
453.00,0.059
454.00,0.058
455.00,0.058
456.00,0.056
457.00,0.055
458.00,0.055
459.00,0.054
460.00,0.054
461.00,0.053
462.00,0.053
463.00,0.051
464.00,0.052
465.00,0.051
466.00,0.052
467.00,0.052
468.00,0.053
469.00,0.054
470.00,0.054
471.00,0.053
472.00,0.053
473.00,0.054
474.00,0.053
475.00,0.053
476.00,0.051
477.00,0.051
478.00,0.050
479.00,0.050
480.00,0.049
481.00,0.049
482.00,0.048
483.00,0.048
484.00,0.047
485.00,0.047
486.00,0.047
487.00,0.047
488.00,0.047
489.00,0.047
490.00,0.048
491.00,0.047
492.00,0.047
493.00,0.046
494.00,0.047
495.00,0.046
496.00,0.046
497.00,0.044
498.00,0.044
499.00,0.045
500.00,0.046
501.00,0.046
502.00,0.046
503.00,0.043
504.00,0.044
505.00,0.043
506.00,0.043
507.00,0.042
508.00,0.042
509.00,0.043
510.00,0.043
511.00,0.043
512.00,0.043
513.00,0.043
514.00,0.043
515.00,0.042
516.00,0.042
517.00,0.041
518.00,0.042
519.00,0.042
520.00,0.043
521.00,0.041
522.00,0.041
523.00,0.041
524.00,0.043
525.00,0.043
526.00,0.042
527.00,0.043
528.00,0.043
529.00,0.042
530.00,0.039
531.00,0.038
532.00,0.038
533.00,0.039
534.00,0.038
535.00,0.039
536.00,0.040
537.00,0.040
538.00,0.039
539.00,0.038
540.00,0.038
541.00,0.039
542.00,0.039
543.00,0.040
544.00,0.041
545.00,0.041
546.00,0.040
547.00,0.039
548.00,0.038
549.00,0.037
550.00,0.037
551.00,0.038
552.00,0.039
553.00,0.039
554.00,0.040
555.00,0.040
556.00,0.040
557.00,0.040
558.00,0.041
559.00,0.041
560.00,0.039
561.00,0.037
562.00,0.038
563.00,0.039
564.00,0.040
565.00,0.039
566.00,0.039
567.00,0.040
568.00,0.039
569.00,0.038
570.00,0.037
571.00,0.037
572.00,0.037
573.00,0.038
574.00,0.039
575.00,0.040
576.00,0.039
577.00,0.039
578.00,0.038
579.00,0.038
580.00,0.039
581.00,0.038
582.00,0.038
583.00,0.038
584.00,0.039
585.00,0.039
586.00,0.038
587.00,0.037
588.00,0.038
589.00,0.038
590.00,0.037
591.00,0.037
592.00,0.038
593.00,0.038
594.00,0.039
595.00,0.038
596.00,0.037
597.00,0.037
598.00,0.036
599.00,0.037
600.00,0.036
601.00,0.037
602.00,0.037
603.00,0.037
604.00,0.036
605.00,0.036
606.00,0.036
607.00,0.037
608.00,0.037
609.00,0.036
610.00,0.037
611.00,0.036
612.00,0.037
613.00,0.037
614.00,0.038
615.00,0.038
616.00,0.038
617.00,0.036
618.00,0.036
619.00,0.036
620.00,0.036
621.00,0.037
622.00,0.037
623.00,0.037
624.00,0.036
625.00,0.036
626.00,0.035
627.00,0.036
628.00,0.036
629.00,0.034
630.00,0.033
631.00,0.033
632.00,0.034
633.00,0.033
634.00,0.033
635.00,0.034
636.00,0.034
637.00,0.034
638.00,0.035
639.00,0.034
640.00,0.033
641.00,0.032
642.00,0.032
643.00,0.032
644.00,0.032
645.00,0.032
646.00,0.032
647.00,0.032
648.00,0.032
649.00,0.034
650.00,0.034
651.00,0.034
652.00,0.032
653.00,0.031
654.00,0.029
655.00,0.029
656.00,0.030
657.00,0.029
658.00,0.029
659.00,0.028
660.00,0.027
661.00,0.026
662.00,0.026
663.00,0.027
664.00,0.028
665.00,0.029
666.00,0.030
667.00,0.031
668.00,0.033
669.00,0.035
670.00,0.036
671.00,0.035
672.00,0.034
673.00,0.033
674.00,0.033
675.00,0.033
676.00,0.032
677.00,0.030
678.00,0.029
679.00,0.027
680.00,0.027
681.00,0.025
682.00,0.026
683.00,0.026
684.00,0.027
685.00,0.026
686.00,0.024
687.00,0.024
688.00,0.024
689.00,0.025
690.00,0.025
691.00,0.026
692.00,0.024
693.00,0.023
694.00,0.023
695.00,0.025
696.00,0.025
697.00,0.024
698.00,0.023
699.00,0.023
700.00,0.023
701.00,0.023
702.00,0.022
703.00,0.021
704.00,0.019
705.00,0.018
706.00,0.017
707.00,0.018
708.00,0.017
709.00,0.017
710.00,0.016
711.00,0.016
712.00,0.017
713.00,0.017
714.00,0.018
715.00,0.018
716.00,0.020
717.00,0.018
718.00,0.017
719.00,0.017
720.00,0.026
721.00,0.035
722.00,0.042
723.00,0.041
724.00,0.040
725.00,0.040
726.00,0.038
727.00,0.037
728.00,0.038
729.00,0.038
730.00,0.039
731.00,0.037
732.00,0.038
733.00,0.037
734.00,0.038
735.00,0.037
736.00,0.037
737.00,0.037
738.00,0.036
739.00,0.036
740.00,0.037
741.00,0.037
742.00,0.037
743.00,0.034
744.00,0.035
745.00,0.035
746.00,0.036
747.00,0.035
748.00,0.035
749.00,0.034
750.00,0.034
751.00,0.033
752.00,0.033
753.00,0.031
754.00,0.030
755.00,0.030
756.00,0.032
757.00,0.033
758.00,0.032
759.00,0.032
760.00,0.032
761.00,0.033
762.00,0.033
763.00,0.032
764.00,0.031
765.00,0.029
766.00,0.029
767.00,0.029
768.00,0.030
769.00,0.030
770.00,0.028
771.00,0.028
772.00,0.028
773.00,0.030
774.00,0.029
775.00,0.029
776.00,0.027
777.00,0.027
778.00,0.026
779.00,0.026
780.00,0.025
781.00,0.024
782.00,0.024
783.00,0.023
784.00,0.023
785.00,0.022
786.00,0.024
787.00,0.024
788.00,0.023
789.00,0.024
790.00,0.024
791.00,0.024
792.00,0.023
793.00,0.023
794.00,0.022
795.00,0.022
796.00,0.018
797.00,0.019
798.00,0.019
799.00,0.023
800.00,0.023
